time (ms),signal (f64),signal (f32),signal (i16),multi amplitudes signal,multi frequencies signal,frequency (Hz),ref spectrum f64,ref spectrum f32,ref spectrum i32,FFTW3 spectrum f32,FFTW3 spectrum i32 (scaled to q15),Ne10 spectrum f32,Ne10 spectrum i32 c,Ne10 spectrum i32 neon,ref spectrum multi amplitudes,Ne10 spectrum multi amplitudes,ref spectrum multi frequencies,Ne10 spectrum multi frequencies,ref spectrum random,Ne10 spectrum random,ref spectrum with MLT,Ne10 spectrum with MLT,
0,0,0,0,0,0,93.75,0.233858,0.233859,7663,0.233859,7663,0.233859,7660,7661,8200,8199,6076,6076,995086,995007,14519,14517,
0.0208333,0.0518076,0.0518076,1697,1696,14001,187.5,0.322899,0.3229,10579,0.322899,10580,0.322899,10579,10580,8971,8970,6313,6313,232025,231993,16902,16901,
0.0416667,0.103443,0.103443,3389,3378,5930,281.25,0.526948,0.526949,17264,0.526949,17267,0.526949,17259,17260,11143,11141,6943,6943,135531,135522,23758,23753,
0.0625,0.154736,0.154736,5070,5032,10481,375,1.05905,1.05906,34701,1.05906,34703,1.05906,34704,34707,17972,17974,8853,8852,96100,96094,48179,48178,
0.0833333,0.205516,0.205516,6734,6645,3713,468.75,11.6137,11.6137,380550,11.6137,380558,11.6137,380502,380519,196795,196780,82275,82268,74522,74515,74127,74120,
0.104167,0.255614,0.255614,8375,8203,-1642,562.5,2.80259,2.80261,91833,2.8026,91835,2.8026,91818,91829,46689,46686,19477,19475,60883,60877,38213,38210,
0.125,0.304864,0.304864,9989,9694,13011,656.25,1.09112,1.09112,35752,1.09112,35753,1.09112,35745,35747,22991,22989,13049,13049,51475,51470,20175,20174,
0.145833,0.353103,0.353103,11570,11106,5357,750,0.705553,0.705553,23119,0.705554,23119,0.705554,23118,23118,24163,24159,16983,16979,44591,44589,13814,13812,
0.166667,0.400172,0.400172,13112,12429,282,843.75,0.531588,0.531589,17419,0.531589,17419,0.531589,17413,17416,49290,49288,38330,38329,39334,39330,10568,10568,
0.1875,0.445913,0.445913,14611,13651,3581,937.5,0.43116,0.431162,14128,0.431161,14128,0.431161,14126,14126,74520,74513,60226,60220,35189,35188,8600,8599,
0.208333,0.490175,0.490175,16062,14766,-4564,1031.25,0.365117,0.365115,11963,0.365118,11964,0.365118,11963,11964,18045,18045,14462,14462,31835,31830,7279,7279,
0.229167,0.532812,0.532812,17459,15765,11271,1125,0.31803,0.318032,10421,0.318031,10421,0.318031,10420,10421,9629,9626,7504,7503,29067,29067,6328,6326,
0.25,0.573682,0.573682,18798,16641,22096,1218.75,0.282561,0.282562,9259,0.282562,9258,0.282562,9256,9257,6350,6350,4723,4722,26743,26738,5607,5607,
0.270833,0.612649,0.612649,20075,17390,13484,1312.5,0.254762,0.254762,8347,0.254762,8348,0.254762,8346,8346,4638,4638,3235,3234,24763,24760,5043,5043,
0.291667,0.649584,0.649584,21285,18009,17903,1406.25,0.232312,0.232313,7609,0.232313,7612,0.232313,7606,7608,3593,3593,2316,2315,23058,23059,4588,4588,
0.3125,0.684365,0.684365,22425,18494,8583,1500,0.213755,0.213756,7004,0.213755,7004,0.213755,7003,7002,2904,2904,1698,1698,21573,21572,4214,4213,
0.333333,0.716877,0.716877,23490,18846,4823,1593.75,0.198125,0.198123,6491,0.198125,6492,0.198125,6490,6491,2414,2416,1258,1257,20269,20268,3899,3899,
0.354167,0.747011,0.747011,24478,19065,18055,1687.5,0.184759,0.184759,6053,0.184759,6054,0.184759,6053,6053,2050,2049,937,936,19114,19115,3629,3628,
0.375,0.774668,0.774668,25384,19152,7616,1781.25,0.173182,0.173187,5674,0.173183,5674,0.173183,5674,5674,1772,1771,708,708,18085,18078,3398,3399,
0.395833,0.799756,0.799755,26206,19112,3549,1875,0.163047,0.163044,5342,0.163048,5342,0.163048,5340,5341,1552,1551,558,559,17161,17160,3195,3194,
0.416667,0.822191,0.822191,26941,18949,4663,1968.75,0.154093,0.154103,5049,0.154093,5049,0.154093,5047,5048,1375,1376,488,486,16328,16322,3016,3016,
0.4375,0.8419,0.8419,27587,18669,-3641,2062.5,0.146118,0.146116,4787,0.146117,4787,0.146117,4785,4784,1230,1229,489,490,15572,15567,2856,2855,
0.458333,0.858816,0.858816,28141,18278,13236,2156.25,0.138966,0.138965,4553,0.138966,4553,0.138966,4550,4552,1109,1109,541,541,14884,14880,2714,2715,
0.479167,0.872885,0.872885,28602,17785,20388,2250,0.132512,0.132512,4344,0.132512,4342,0.132512,4344,4344,1007,1007,621,620,14253,14258,2589,2588,
0.5,0.884059,0.884059,28968,17198,11431,2343.75,0.126657,0.126664,4149,0.126657,4150,0.126657,4149,4150,920,919,713,712,13676,13677,2472,2472,
0.520833,0.8923,0.8923,29238,16527,15230,2437.5,0.121319,0.121321,3976,0.121319,3975,0.121319,3975,3976,847,846,813,813,13143,13142,2365,2364,
0.541667,0.897583,0.897583,29412,15783,3598,2531.25,0.116431,0.116433,3814,0.116431,3815,0.116431,3813,3815,781,780,920,919,12652,12652,2269,2271,
0.5625,0.899889,0.899889,29487,14975,1715,2625,0.111937,0.111929,3666,0.111937,3667,0.111937,3666,3666,724,723,1029,1030,12195,12199,2180,2180,
0.583333,0.899211,0.899211,29465,14115,13249,2718.75,0.10779,0.107792,3531,0.10779,3532,0.10779,3528,3530,674,674,1143,1143,11772,11768,2098,2099,
0.604167,0.89555,0.89555,29345,13215,761,2812.5,0.103952,0.103951,3407,0.103952,3406,0.103952,3405,3403,630,630,1265,1264,11377,11379,2023,2022,
0.625,0.88892,0.88892,29128,12285,-1895,2906.25,0.100388,0.100388,3288,0.100388,3289,0.100388,3287,3288,590,590,1394,1394,11008,11003,1952,1953,
0.645833,0.879341,0.879341,28814,11337,-2644,3000,0.0970695,0.0970718,3180,0.0970697,3180,0.0970698,3179,3179,556,555,1535,1534,10662,10660,1887,1887,
0.666667,0.866846,0.866846,28404,10383,-10022,3093.75,0.0939717,0.0939722,3076,0.0939716,3079,0.0939716,3076,3077,525,526,1687,1688,10338,10337,1825,1825,
0.6875,0.851477,0.851477,27901,9431,8177,3187.5,0.0910731,0.0910741,2985,0.091073,2984,0.091073,2984,2984,496,496,1859,1859,10034,10034,1770,1770,
0.708333,0.833284,0.833284,27305,8494,12373,3281.25,0.0883548,0.0883547,2895,0.0883548,2895,0.0883548,2894,2895,470,471,2054,2054,9747,9743,1717,1717,
0.729167,0.812327,0.812327,26618,7579,4278,3375,0.0858003,0.0857965,2810,0.0858,2811,0.0857999,2811,2810,446,446,2277,2276,9477,9474,1667,1666,
0.75,0.788676,0.788676,25843,6696,7940,3468.75,0.0833951,0.0833973,2733,0.0833949,2732,0.083395,2733,2733,424,425,2538,2539,9221,9223,1619,1619,
0.770833,0.76241,0.76241,24982,5853,-4770,3562.5,0.0811265,0.0811233,2657,0.0811265,2658,0.0811266,2655,2655,404,403,2851,2851,8979,8982,1575,1575,
0.791667,0.733615,0.733615,24039,5056,-3771,3656.25,0.0789829,0.0789833,2588,0.0789832,2588,0.0789832,2586,2586,387,387,3234,3234,8750,8747,1533,1534,
0.8125,0.702387,0.702387,23015,4312,6550,3750,0.0769544,0.0769458,2521,0.0769546,2521,0.0769546,2521,2520,371,369,3718,3717,8533,8532,1494,1493,
0.833333,0.66883,0.66883,21916,3625,-6590,3843.75,0.0750318,0.0750382,2459,0.075032,2458,0.075032,2459,2460,355,354,4353,4355,8327,8325,1456,1457,
0.854167,0.633055,0.633055,20743,2999,-7029,3937.5,0.073207,0.0732054,2398,0.0732073,2398,0.0732073,2397,2397,340,340,5224,5222,8130,8131,1421,1421,
0.875,0.595181,0.595181,19502,2436,-8865,4031.25,0.0714728,0.071474,2340,0.0714732,2342,0.0714732,2340,2341,327,328,6504,6504,7943,7940,1386,1386,
0.895833,0.555332,0.555332,18197,1938,-14014,4125,0.0698225,0.0698259,2287,0.069823,2287,0.0698228,2287,2287,316,315,8577,8576,7764,7761,1355,1354,
0.916667,0.513642,0.513642,16831,1505,5846,4218.75,0.0682502,0.0682449,2235,0.0682505,2236,0.0682506,2235,2235,303,303,12534,12535,7595,7591,1324,1324,
0.9375,0.470249,0.470249,15409,1135,7895,4312.5,0.0667506,0.066744,2187,0.0667505,2187,0.0667505,2186,2186,295,294,23145,23138,7431,7433,1295,1294,
0.958333,0.425296,0.425296,13936,827,1659,4406.25,0.0653186,0.0653187,2140,0.0653184,2140,0.0653184,2139,2140,284,285,149245,149234,7276,7274,1266,1267,
0.979167,0.378932,0.378932,12416,577,5404,4500,0.0639498,0.0639451,2095,0.0639504,2095,0.0639504,2093,2092,274,273,34114,34108,7127,7129,1239,1238,
1,0.331312,0.331312,10856,381,-7475,4593.75,0.0626402,0.0626423,2052,0.0626402,2052,0.0626401,2052,2053,266,265,15094,15094,6984,6982,1214,1215,
1.02083,0.282593,0.282593,9260,234,-3198,4687.5,0.0613861,0.0613873,2011,0.0613862,2011,0.0613862,2012,2011,258,258,9693,9692,6847,6852,1190,1189,
1.04167,0.232937,0.232937,7632,130,5844,4781.25,0.0601839,0.0601772,1971,0.0601838,1972,0.0601838,1971,1972,250,251,7118,7118,6716,6714,1167,1168,
1.0625,0.182509,0.182509,5980,62,-7239,4875,0.0590305,0.0590255,1934,0.0590304,1934,0.0590305,1934,1934,242,241,5610,5610,6590,6588,1145,1144,
1.08333,0.131475,0.131475,4308,23,-5536,4968.75,0.0579231,0.0579244,1897,0.0579231,1898,0.0579233,1896,1897,235,235,4614,4613,6468,6467,1123,1123,
1.10417,0.0800049,0.0800049,2621,5,-8474,5062.5,0.056859,0.0568188,1863,0.0568592,1863,0.0568592,1864,1863,229,229,3906,3906,6352,6356,1101,1101,
1.125,0.0282697,0.0282698,926,0,-11084,5156.25,0.0558358,0.0558383,1829,0.0558361,1829,0.0558361,1827,1828,223,223,3375,3376,6240,6236,1082,1082,
1.14583,-0.0235593,-0.0235592,-771,0,9738,5250,0.054851,0.0548528,1796,0.0548514,1797,0.0548514,1795,1794,217,216,2959,2959,6132,6127,1063,1062,
1.16667,-0.0753101,-0.0753101,-2467,-4,9512,5343.75,0.0539027,0.0538996,1767,0.053903,1766,0.053903,1766,1767,212,212,2627,2627,6027,6026,1044,1044,
1.1875,-0.126811,-0.126811,-4155,-20,4995,5437.5,0.0529889,0.0529926,1736,0.0529891,1736,0.052989,1734,1734,206,205,2351,2351,5926,5928,1027,1025,
1.20833,-0.177892,-0.177892,-5829,-57,7990,5531.25,0.0521077,0.052106,1707,0.0521078,1707,0.0521079,1707,1707,201,202,2119,2120,5829,5828,1010,1010,
1.22917,-0.228382,-0.228382,-7483,-122,-5160,5625,0.0512575,0.0512603,1679,0.051258,1679,0.051258,1681,1681,196,196,1920,1919,5736,5736,992,991,
1.25,-0.278115,-0.278115,-9113,-223,1644,5718.75,0.0504367,0.05044,1652,0.0504365,1652,0.0504365,1652,1653,191,191,1746,1745,5645,5642,976,976,
1.27083,-0.326926,-0.326926,-10712,-365,8408,5812.5,0.0496438,0.0496403,1627,0.0496448,1626,0.0496448,1627,1625,187,186,1591,1591,5557,5561,961,960,
1.29167,-0.374653,-0.374653,-12276,-557,-4861,5906.25,0.0488775,0.048885,1601,0.0488778,1601,0.0488778,1602,1603,183,184,1453,1453,5473,5471,947,947,
1.3125,-0.421137,-0.421137,-13799,-802,-2063,6000,0.0481364,0.0481394,1576,0.0481363,1577,0.0481363,1574,1574,179,178,1328,1329,5391,5388,932,932,
1.33333,-0.466224,-0.466224,-15277,-1104,-6851,6093.75,0.0474193,0.047421,1554,0.0474193,1553,0.0474192,1553,1554,175,176,1214,1214,5312,5311,918,919,
1.35417,-0.509766,-0.509766,-16703,-1468,-7418,6187.5,0.0467252,0.0467339,1530,0.0467253,1531,0.0467253,1533,1533,171,172,1109,1109,5235,5236,905,905,
1.375,-0.551616,-0.551616,-18075,-1896,12996,6281.25,0.046053,0.0460526,1508,0.0460531,1509,0.0460531,1508,1509,168,169,1011,1010,5160,5160,891,893,
1.39583,-0.591638,-0.591638,-19386,-2388,9920,6375,0.0454017,0.0453983,1487,0.0454017,1487,0.0454017,1487,1486,166,164,917,917,5089,5089,878,878,
1.41667,-0.629697,-0.629697,-20633,-2945,6463,6468.75,0.0447703,0.0447661,1466,0.0447702,1467,0.0447704,1467,1468,162,162,831,830,5019,5017,867,868,
1.4375,-0.665668,-0.665668,-21812,-3566,7602,6562.5,0.044158,0.0441698,1446,0.0441579,1446,0.0441579,1446,1445,158,158,748,747,4951,4954,854,853,
1.45833,-0.699431,-0.699431,-22918,-4247,-6081,6656.25,0.0435639,0.0435347,1427,0.0435638,1427,0.0435638,1427,1427,156,155,668,669,4885,4882,843,845,
1.47917,-0.730875,-0.730875,-23949,-4986,2334,6750,0.0429873,0.0429818,1408,0.0429876,1408,0.0429875,1407,1407,154,153,593,592,4821,4822,831,831,
1.5,-0.759895,-0.759895,-24900,-5779,5966,6843.75,0.0424274,0.0424311,1390,0.0424276,1390,0.0424276,1390,1390,150,150,519,520,4758,4759,821,822,
1.52083,-0.786395,-0.786395,-25768,-6618,-7566,6937.5,0.0418836,0.0418903,1371,0.0418833,1372,0.0418833,1373,1372,147,148,452,452,4698,4695,811,810,
1.54167,-0.810287,-0.810287,-26551,-7497,-4473,7031.25,0.0413551,0.0413741,1355,0.0413555,1355,0.0413555,1356,1356,146,146,391,391,4640,4636,799,800,
1.5625,-0.831492,-0.831492,-27246,-8409,-11347,7125,0.0408415,0.0408379,1337,0.0408415,1338,0.0408415,1336,1336,143,143,342,341,4583,4584,791,790,
1.58333,-0.849939,-0.849939,-27850,-9345,-9915,7218.75,0.040342,0.0403445,1322,0.0403422,1321,0.0403422,1321,1321,140,141,316,316,4527,4529,781,781,
1.60417,-0.865567,-0.865567,-28362,-10296,9361,7312.5,0.0398561,0.0398545,1305,0.0398565,1306,0.0398564,1305,1304,139,139,317,316,4473,4475,772,771,
1.625,-0.878325,-0.878325,-28780,-11251,3669,7406.25,0.0393833,0.0393976,1289,0.0393837,1290,0.0393837,1290,1291,135,136,355,355,4420,4422,762,762,
1.64583,-0.88817,-0.88817,-29103,-12200,1340,7500,0.0389231,0.0389174,1274,0.0389232,1275,0.0389233,1275,1275,134,133,424,424,4369,4371,752,752,
1.66667,-0.89507,-0.89507,-29329,-13131,468,7593.75,0.038475,0.038466,1260,0.0384749,1260,0.0384749,1260,1261,132,133,524,525,4319,4319,745,745,
1.6875,-0.899001,-0.899001,-29458,-14035,-13040,7687.5,0.0380386,0.0380255,1247,0.0380384,1246,0.0380384,1247,1245,130,130,650,649,4271,4271,736,735,
1.70833,-0.899951,-0.899951,-29489,-14899,-3012,7781.25,0.0376134,0.0376087,1232,0.0376134,1232,0.0376134,1232,1233,129,129,802,804,4223,4222,728,729,
1.72917,-0.897916,-0.897916,-29422,-15712,-2228,7875,0.0371991,0.0372028,1219,0.0371989,1218,0.0371989,1217,1216,125,124,985,983,4177,4176,720,719,
1.75,-0.892903,-0.892903,-29258,-16462,-15070,7968.75,0.0367952,0.036791,1205,0.0367955,1205,0.0367955,1205,1205,124,124,1209,1208,4132,4130,712,713,
1.77083,-0.884929,-0.884929,-28997,-17140,-11451,8062.5,0.0364014,0.036402,1193,0.0364018,1192,0.0364018,1193,1191,123,122,1483,1483,4088,4089,703,703,
1.79167,-0.874021,-0.874021,-28639,-17735,-19499,8156.25,0.0360173,0.036022,1180,0.0360193,1180,0.0360193,1181,1181,121,122,1829,1830,4045,4042,697,698,
1.8125,-0.860214,-0.860214,-28187,-18237,-15165,8250,0.0356426,0.035628,1167,0.0356393,1167,0.0356392,1167,1166,120,117,2283,2282,4004,4009,689,688,
1.83333,-0.843554,-0.843554,-27641,-18638,3265,8343.75,0.0352769,0.0352785,1154,0.0352766,1155,0.0352766,1155,1156,118,118,2904,2905,3963,3959,682,683,
1.85417,-0.824096,-0.824096,-27003,-18929,-3790,8437.5,0.0349201,0.0349422,1142,0.0349206,1144,0.0349207,1142,1142,115,115,3812,3810,3923,3925,674,674,
1.875,-0.801906,-0.801906,-26276,-19103,-4128,8531.25,0.0345717,0.0345041,1132,0.0345724,1132,0.0345724,1132,1132,115,116,5273,5274,3884,3884,670,671,
1.89583,-0.777056,-0.777056,-25462,-19154,-6289,8625,0.0342314,0.0342201,1121,0.0342317,1121,0.0342318,1122,1121,114,113,8039,8039,3846,3845,663,662,
1.91667,-0.749629,-0.749629,-24563,-19078,-18200,8718.75,0.0338991,0.0338827,1109,0.0338996,1110,0.0338996,1109,1110,112,114,15433,15429,3809,3809,656,656,
1.9375,-0.719716,-0.719716,-23583,-18871,-6013,8812.5,0.0335745,0.0335818,1100,0.0335747,1100,0.0335747,1100,1099,111,111,139893,139882,3773,3778,651,649,
1.95833,-0.687416,-0.687417,-22525,-18532,-7175,8906.25,0.0332573,0.0332836,1090,0.0332574,1089,0.0332574,1091,1091,110,110,36618,36613,3737,3737,644,644,
1.97917,-0.652837,-0.652837,-21392,-18058,-18024,9000,0.0329473,0.0329363,1079,0.0329465,1079,0.0329464,1079,1079,109,107,12938,12938,3703,3705,639,637,
2,-0.616092,-0.616093,-20188,-17452,-13391,9093.75,0.0326443,0.0326476,1070,0.0326443,1069,0.0326443,1070,1071,107,109,8302,8301,3669,3670,632,632,
2.02083,-0.577305,-0.577305,-18917,-16714,-21468,9187.5,0.032348,0.0323452,1060,0.0323464,1059,0.0323463,1060,1060,106,106,6240,6240,3635,3636,625,624,
2.04167,-0.536602,-0.536602,-17583,-15849,-13405,9281.25,0.0320583,0.032044,1050,0.0320575,1050,0.0320575,1049,1049,105,105,5066,5066,3604,3602,621,621,
2.0625,-0.494121,-0.494121,-16191,-14862,4407,9375,0.0317749,0.0317835,1041,0.0317746,1041,0.0317746,1041,1041,103,103,4301,4302,3571,3573,615,613,
2.08333,-0.45,-0.45,-14745,-13757,-2949,9468.75,0.0314977,0.0314945,1031,0.0314971,1032,0.0314972,1033,1033,102,105,3765,3764,3541,3539,608,610,
2.10417,-0.404387,-0.404387,-13250,-12544,-885,9562.5,0.0312264,0.0312274,1023,0.0312265,1023,0.0312266,1022,1022,102,102,3365,3367,3510,3512,604,602,
2.125,-0.357433,-0.357433,-11712,-11230,-4012,9656.25,0.030961,0.0309527,1014,0.0309612,1014,0.0309612,1012,1013,101,101,3058,3058,3481,3478,599,599,
2.14583,-0.309294,-0.309294,-10134,-9826,-13532,9750,0.0307012,0.0307023,1006,0.0307013,1006,0.0307013,1005,1004,100,99,2810,2811,3452,3452,595,593,
2.16667,-0.260129,-0.260129,-8523,-8341,587,9843.75,0.0304469,0.030451,997,0.030447,997,0.030447,997,997,99,99,2610,2609,3423,3425,589,589,
2.1875,-0.210101,-0.210101,-6884,-6789,-2327,9937.5,0.0301979,0.0301917,989,0.0301981,989,0.0301981,988,988,98,97,2441,2442,3395,3391,583,583,
2.20833,-0.159376,-0.159376,-5222,-5181,-10854,10031.2,0.0299541,0.0299508,981,0.0299543,981,0.0299543,981,983,96,96,2298,2297,3368,3367,580,580,
2.22917,-0.108123,-0.108123,-3542,-3530,-5702,10125,0.0297153,0.0297359,973,0.0297151,973,0.0297153,971,970,95,93,2176,2175,3341,3343,574,573,
2.25,-0.0565115,-0.0565118,-1851,-1849,-13652,10218.8,0.0294814,0.029482,966,0.0294809,966,0.0294809,966,967,96,96,2069,2067,3315,3315,571,571,
2.27083,-0.00471237,-0.00471235,-154,-154,-2244,10312.5,0.0292523,0.0292537,958,0.0292522,958,0.0292522,960,959,93,93,1975,1975,3290,3287,567,566,
2.29167,0.0471024,0.0471023,1543,1542,14090,10406.2,0.0290278,0.029009,950,0.0290277,951,0.0290276,950,951,92,93,1891,1890,3264,3266,562,562,
2.3125,0.0987609,0.0987606,3236,3226,6351,10500,0.0288078,0.0288065,944,0.0288082,943,0.0288082,943,942,93,92,1817,1818,3240,3239,557,556,
2.33333,0.150092,0.150092,4918,4883,9962,10593.8,0.0285922,0.0285847,937,0.0285931,936,0.0285931,937,937,92,92,1750,1749,3215,3218,553,553,
2.35417,0.200925,0.200925,6583,6500,5097,10687.5,0.0283809,0.0283811,929,0.0283782,929,0.0283782,927,927,90,89,1690,1690,3192,3196,549,548,
2.375,0.251092,0.251092,8227,8064,-2447,10781.2,0.0281737,0.0281591,923,0.0281739,923,0.0281739,923,924,89,89,1635,1633,3169,3170,546,546,
2.39583,0.300426,0.300426,9844,9562,12211,10875,0.0279706,0.0279586,916,0.0279706,916,0.0279707,916,916,89,88,1585,1586,3146,3149,542,542,
2.41667,0.348764,0.348764,11428,10981,6756,10968.8,0.0277715,0.0277753,910,0.027772,910,0.0277716,909,909,87,87,1539,1538,3124,3122,536,537,
2.4375,0.395945,0.395945,12974,12312,-214,11062.5,0.0275762,0.0275915,903,0.0275767,903,0.0275767,901,901,87,86,1495,1497,3102,3098,533,532,
2.45833,0.441813,0.441813,14477,13545,4034,11156.2,0.0273847,0.0273983,897,0.0273851,897,0.0273851,898,898,87,88,1457,1456,3080,3079,530,531,
2.47917,0.486216,0.486216,15932,14669,-4434,11250,0.0271968,0.0272052,891,0.0271969,891,0.0271969,891,890,86,85,1419,1420,3059,3059,526,524,
2.5,0.529007,0.529007,17334,15679,9076,11343.8,0.0270125,0.0270335,885,0.0270123,885,0.0270123,884,885,85,85,1385,1384,3039,3034,522,524,
2.52083,0.570043,0.570043,18679,16566,22501,11437.5,0.0268318,0.0268344,878,0.0268317,879,0.0268316,877,877,85,83,1353,1354,3018,3018,519,518,
2.54167,0.609188,0.609188,19961,17327,13775,11531.2,0.0266544,0.0266542,873,0.0266559,873,0.0266559,874,874,84,85,1323,1322,2998,2998,516,516,
2.5625,0.646314,0.646314,21178,17958,17600,11625,0.0264803,0.0264815,867,0.0264797,867,0.0264799,866,866,84,83,1295,1296,2979,2979,512,511,
2.58333,0.681296,0.681296,22324,18456,10043,11718.8,0.0263095,0.0263266,862,0.0263093,862,0.0263093,862,862,83,83,1269,1268,2960,2958,509,510,
2.60417,0.714018,0.714018,23396,18820,3846,11812.5,0.0261419,0.0261228,856,0.0261414,856,0.0261413,856,855,82,81,1244,1245,2941,2939,505,505,
2.625,0.744373,0.744372,24391,19050,17616,11906.2,0.0259774,0.0259827,851,0.0259776,851,0.0259776,852,853,81,84,1221,1220,2923,2923,502,503,
2.64583,0.772258,0.772258,25305,19150,9045,12000,0.0258159,0.0258151,845,0.0258153,845,0.0258152,846,846,80,80,1198,1199,2904,2903,498,498,
2.66667,0.797583,0.797583,26135,19121,3031,12093.8,0.0256574,0.0256643,840,0.0256573,840,0.0256573,841,842,80,81,1177,1176,2887,2887,496,497,
2.6875,0.820263,0.820263,26878,18969,5382,12187.5,0.0255018,0.0254901,835,0.0255021,835,0.025502,836,835,79,79,1157,1157,2869,2871,493,492,
2.70833,0.840222,0.840222,27532,18699,-3711,12281.2,0.025349,0.0253545,830,0.0253492,830,0.0253492,831,831,79,79,1139,1139,2852,2856,489,490,
2.72917,0.857395,0.857395,28095,18318,11187,12375,0.025199,0.0252104,825,0.025199,825,0.0251989,824,824,78,77,1119,1121,2835,2833,488,487,
