time (ms),signal (f64),signal (f32),signal (i16),multi frequencies signal,frequency (Hz),ref spectrum f64,ref spectrum f32,ref spectrum i32,FFTW3 spectrum f32,FFTW3 spectrum i32 (scaled to q15),Ne10 spectrum f32,Ne10 spectrum i32 c,Ne10 spectrum i32 neon,ref spectrum multi frequencies,Ne10 spectrum multi frequencies,ref spectrum random,Ne10 spectrum random,
0,0,0,0,0,93.75,0.233858,0.233859,7663,0.233859,7663,0.233859,7660,7661,5929,5929,995086,995007,
0.0208333,0.0518076,0.0518076,1697,13967,187.5,0.322899,0.3229,10579,0.322899,10580,0.322899,10579,10580,6141,6140,232025,231993,
0.0416667,0.103443,0.103443,3389,5862,281.25,0.526948,0.526949,17264,0.526949,17267,0.526949,17259,17260,6694,6694,135531,135522,
0.0625,0.154736,0.154736,5070,10380,375,1.05905,1.05906,34701,1.05906,34703,1.05906,34704,34707,8317,8315,96100,96094,
0.0833333,0.205516,0.205516,6734,3578,468.75,11.6137,11.6137,380550,11.6137,380558,11.6137,380502,380519,74665,74659,74522,74515,
0.104167,0.255614,0.255614,8375,-1810,562.5,2.80259,2.80261,91833,2.8026,91835,2.8026,91818,91829,17792,17791,60883,60877,
0.125,0.304864,0.304864,9989,12811,656.25,1.09112,1.09112,35752,1.09112,35753,1.09112,35745,35747,12575,12574,51475,51470,
0.145833,0.353103,0.353103,11570,5126,750,0.705553,0.705553,23119,0.705554,23119,0.705554,23118,23118,16731,16727,44591,44589,
0.166667,0.400172,0.400172,13112,19,843.75,0.531588,0.531589,17419,0.531589,17419,0.531589,17413,17416,38153,38151,39334,39330,
0.1875,0.445913,0.445913,14611,3289,937.5,0.43116,0.431162,14128,0.431161,14128,0.431161,14126,14126,60382,60376,35189,35188,
0.208333,0.490175,0.490175,16062,-4885,1031.25,0.365117,0.365115,11963,0.365118,11964,0.365118,11963,11964,14585,14584,31835,31830,
0.229167,0.532812,0.532812,17459,10922,1125,0.31803,0.318032,10421,0.318031,10421,0.318031,10420,10421,7619,7619,29067,29067,
0.25,0.573682,0.573682,18798,21720,1218.75,0.282561,0.282562,9259,0.282562,9258,0.282562,9256,9257,4830,4830,26743,26738,
0.270833,0.612649,0.612649,20075,13083,1312.5,0.254762,0.254762,8347,0.254762,8348,0.254762,8346,8346,3341,3340,24763,24760,
0.291667,0.649584,0.649584,21285,17478,1406.25,0.232312,0.232313,7609,0.232313,7612,0.232313,7606,7608,2422,2421,23058,23059,
0.3125,0.684365,0.684365,22425,8134,1500,0.213755,0.213756,7004,0.213755,7004,0.213755,7003,7002,1803,1803,21573,21572,
0.333333,0.716877,0.716877,23490,4353,1593.75,0.198125,0.198123,6491,0.198125,6492,0.198125,6490,6491,1364,1364,20269,20268,
0.354167,0.747011,0.747011,24478,17565,1687.5,0.184759,0.184759,6053,0.184759,6054,0.184759,6053,6053,1045,1044,19114,19115,
0.375,0.774668,0.774668,25384,7108,1781.25,0.173182,0.173187,5674,0.173183,5674,0.173183,5674,5674,817,816,18085,18078,
0.395833,0.799756,0.799755,26206,3025,1875,0.163047,0.163044,5342,0.163048,5342,0.163048,5340,5341,666,668,17161,17160,
0.416667,0.822191,0.822191,26941,4124,1968.75,0.154093,0.154103,5049,0.154093,5049,0.154093,5047,5048,581,580,16328,16322,
0.4375,0.8419,0.8419,27587,-4192,2062.5,0.146118,0.146116,4787,0.146117,4787,0.146117,4785,4784,561,562,15572,15567,
0.458333,0.858816,0.858816,28141,12673,2156.25,0.138966,0.138965,4553,0.138966,4553,0.138966,4550,4552,588,587,14884,14880,
0.479167,0.872885,0.872885,28602,19815,2250,0.132512,0.132512,4344,0.132512,4342,0.132512,4344,4344,650,648,14253,14258,
0.5,0.884059,0.884059,28968,10852,2343.75,0.126657,0.126664,4149,0.126657,4150,0.126657,4149,4150,728,728,13676,13677,
0.520833,0.8923,0.8923,29238,14645,2437.5,0.121319,0.121321,3976,0.121319,3975,0.121319,3975,3976,816,818,13143,13142,
0.541667,0.897583,0.897583,29412,3010,2531.25,0.116431,0.116433,3814,0.116431,3815,0.116431,3813,3815,915,916,12652,12652,
0.5625,0.899889,0.899889,29487,1126,2625,0.111937,0.111929,3666,0.111937,3667,0.111937,3666,3666,1019,1021,12195,12199,
0.583333,0.899211,0.899211,29465,12660,2718.75,0.10779,0.107792,3531,0.10779,3532,0.10779,3528,3530,1131,1130,11772,11768,
0.604167,0.89555,0.89555,29345,174,2812.5,0.103952,0.103951,3407,0.103952,3406,0.103952,3405,3403,1248,1248,11377,11379,
0.625,0.88892,0.88892,29128,-2477,2906.25,0.100388,0.100388,3288,0.100388,3289,0.100388,3287,3288,1375,1375,11008,11003,
0.645833,0.879341,0.879341,28814,-3220,3000,0.0970695,0.0970718,3180,0.0970697,3180,0.0970698,3179,3179,1514,1513,10662,10660,
0.666667,0.866846,0.866846,28404,-10590,3093.75,0.0939717,0.0939722,3076,0.0939716,3079,0.0939716,3076,3077,1665,1665,10338,10337,
0.6875,0.851477,0.851477,27901,7619,3187.5,0.0910731,0.0910741,2985,0.091073,2984,0.091073,2984,2984,1836,1836,10034,10034,
0.708333,0.833284,0.833284,27305,11827,3281.25,0.0883548,0.0883547,2895,0.0883548,2895,0.0883548,2894,2895,2030,2030,9747,9743,
0.729167,0.812327,0.812327,26618,3745,3375,0.0858003,0.0857965,2810,0.0858,2811,0.0857999,2811,2810,2251,2251,9477,9474,
0.75,0.788676,0.788676,25843,7423,3468.75,0.0833951,0.0833973,2733,0.0833949,2732,0.083395,2733,2733,2513,2513,9221,9223,
0.770833,0.76241,0.76241,24982,-5269,3562.5,0.0811265,0.0811233,2657,0.0811265,2658,0.0811266,2655,2655,2826,2826,8979,8982,
0.791667,0.733615,0.733615,24039,-4251,3656.25,0.0789829,0.0789833,2588,0.0789832,2588,0.0789832,2586,2586,3208,3207,8750,8747,
0.8125,0.702387,0.702387,23015,6090,3750,0.0769544,0.0769458,2521,0.0769546,2521,0.0769546,2521,2520,3693,3691,8533,8532,
0.833333,0.66883,0.66883,21916,-7029,3843.75,0.0750318,0.0750382,2459,0.075032,2458,0.075032,2459,2460,4326,4327,8327,8325,
0.854167,0.633055,0.633055,20743,-7444,3937.5,0.073207,0.0732054,2398,0.0732073,2398,0.0732073,2397,2397,5198,5197,8130,8131,
0.875,0.595181,0.595181,19502,-9255,4031.25,0.0714728,0.071474,2340,0.0714732,2342,0.0714732,2340,2341,6477,6478,7943,7940,
0.895833,0.555332,0.555332,18197,-14378,4125,0.0698225,0.0698259,2287,0.069823,2287,0.0698228,2287,2287,8550,8549,7764,7761,
0.916667,0.513642,0.513642,16831,5509,4218.75,0.0682502,0.0682449,2235,0.0682505,2236,0.0682506,2235,2235,12507,12508,7595,7591,
0.9375,0.470249,0.470249,15409,7587,4312.5,0.0667506,0.066744,2187,0.0667505,2187,0.0667505,2186,2186,23117,23110,7431,7433,
0.958333,0.425296,0.425296,13936,1380,4406.25,0.0653186,0.0653187,2140,0.0653184,2140,0.0653184,2139,2140,149217,149206,7276,7274,
0.979167,0.378932,0.378932,12416,5155,4500,0.0639498,0.0639451,2095,0.0639504,2095,0.0639504,2093,2092,34136,34131,7127,7129,
1,0.331312,0.331312,10856,-7693,4593.75,0.0626402,0.0626423,2052,0.0626402,2052,0.0626401,2052,2053,15118,15118,6984,6982,
1.02083,0.282593,0.282593,9260,-3384,4687.5,0.0613861,0.0613873,2011,0.0613862,2011,0.0613862,2012,2011,9719,9717,6847,6852,
1.04167,0.232937,0.232937,7632,5691,4781.25,0.0601839,0.0601772,1971,0.0601838,1972,0.0601838,1971,1972,7145,7145,6716,6714,
1.0625,0.182509,0.182509,5980,-7359,4875,0.0590305,0.0590255,1934,0.0590304,1934,0.0590305,1934,1934,5636,5635,6590,6588,
1.08333,0.131475,0.131475,4308,-5622,4968.75,0.0579231,0.0579244,1897,0.0579231,1898,0.0579233,1896,1897,4639,4638,6468,6467,
1.10417,0.0800049,0.0800049,2621,-8526,5062.5,0.056859,0.0568188,1863,0.0568592,1863,0.0568592,1864,1863,3930,3930,6352,6356,
1.125,0.0282697,0.0282698,926,-11102,5156.25,0.0558358,0.0558383,1829,0.0558361,1829,0.0558361,1827,1828,3400,3401,6240,6236,
1.14583,-0.0235593,-0.0235592,-771,9753,5250,0.054851,0.0548528,1796,0.0548514,1797,0.0548514,1795,1794,2984,2983,6132,6127,
1.16667,-0.0753101,-0.0753101,-2467,9562,5343.75,0.0539027,0.0538996,1767,0.053903,1766,0.053903,1766,1767,2651,2650,6027,6026,
1.1875,-0.126811,-0.126811,-4155,5078,5437.5,0.0529889,0.0529926,1736,0.0529891,1736,0.052989,1734,1734,2374,2374,5926,5928,
1.20833,-0.177892,-0.177892,-5829,8107,5531.25,0.0521077,0.052106,1707,0.0521078,1707,0.0521079,1707,1707,2141,2142,5829,5828,
1.22917,-0.228382,-0.228382,-7483,-5010,5625,0.0512575,0.0512603,1679,0.051258,1679,0.051258,1681,1681,1942,1942,5736,5736,
1.25,-0.278115,-0.278115,-9113,1826,5718.75,0.0504367,0.05044,1652,0.0504365,1652,0.0504365,1652,1653,1768,1767,5645,5642,
1.27083,-0.326926,-0.326926,-10712,8623,5812.5,0.0496438,0.0496403,1627,0.0496448,1626,0.0496448,1627,1625,1613,1613,5557,5561,
1.29167,-0.374653,-0.374653,-12276,-4615,5906.25,0.0488775,0.048885,1601,0.0488778,1601,0.0488778,1602,1603,1476,1475,5473,5471,
1.3125,-0.421137,-0.421137,-13799,-1787,6000,0.0481364,0.0481394,1576,0.0481363,1577,0.0481363,1574,1574,1350,1351,5391,5388,
1.33333,-0.466224,-0.466224,-15277,-6545,6093.75,0.0474193,0.047421,1554,0.0474193,1553,0.0474192,1553,1554,1236,1236,5312,5311,
1.35417,-0.509766,-0.509766,-16703,-7083,6187.5,0.0467252,0.0467339,1530,0.0467253,1531,0.0467253,1533,1533,1130,1130,5235,5236,
1.375,-0.551616,-0.551616,-18075,13358,6281.25,0.046053,0.0460526,1508,0.0460531,1509,0.0460531,1508,1509,1031,1030,5160,5160,
1.39583,-0.591638,-0.591638,-19386,10308,6375,0.0454017,0.0453983,1487,0.0454017,1487,0.0454017,1487,1486,937,937,5089,5089,
1.41667,-0.629697,-0.629697,-20633,6876,6468.75,0.0447703,0.0447661,1466,0.0447702,1467,0.0447704,1467,1468,850,849,5019,5017,
1.4375,-0.665668,-0.665668,-21812,8038,6562.5,0.044158,0.0441698,1446,0.0441579,1446,0.0441579,1446,1445,766,765,4951,4954,
1.45833,-0.699431,-0.699431,-22918,-5622,6656.25,0.0435639,0.0435347,1427,0.0435638,1427,0.0435638,1427,1427,685,685,4885,4882,
1.47917,-0.730875,-0.730875,-23949,2813,6750,0.0429873,0.0429818,1408,0.0429876,1408,0.0429875,1407,1407,607,607,4821,4822,
1.5,-0.759895,-0.759895,-24900,6464,6843.75,0.0424274,0.0424311,1390,0.0424276,1390,0.0424276,1390,1390,532,532,4758,4759,
1.52083,-0.786395,-0.786395,-25768,-7051,6937.5,0.0418836,0.0418903,1371,0.0418833,1372,0.0418833,1373,1372,463,463,4698,4695,
1.54167,-0.810287,-0.810287,-26551,-3941,7031.25,0.0413551,0.0413741,1355,0.0413555,1355,0.0413555,1356,1356,397,397,4640,4636,
1.5625,-0.831492,-0.831492,-27246,-10802,7125,0.0408415,0.0408379,1337,0.0408415,1338,0.0408415,1336,1336,344,344,4583,4584,
1.58333,-0.849939,-0.849939,-27850,-9358,7218.75,0.040342,0.0403445,1322,0.0403422,1321,0.0403422,1321,1321,310,310,4527,4529,
1.60417,-0.865567,-0.865567,-28362,9929,7312.5,0.0398561,0.0398545,1305,0.0398565,1306,0.0398564,1305,1304,303,303,4473,4475,
1.625,-0.878325,-0.878325,-28780,4245,7406.25,0.0393833,0.0393976,1289,0.0393837,1290,0.0393837,1290,1291,335,336,4420,4422,
1.64583,-0.88817,-0.88817,-29103,1923,7500,0.0389231,0.0389174,1274,0.0389232,1275,0.0389233,1275,1275,402,402,4369,4371,
1.66667,-0.89507,-0.89507,-29329,1055,7593.75,0.038475,0.038466,1260,0.0384749,1260,0.0384749,1260,1261,500,501,4319,4319,
1.6875,-0.899001,-0.899001,-29458,-12451,7687.5,0.0380386,0.0380255,1247,0.0380384,1246,0.0380384,1247,1245,625,625,4271,4271,
1.70833,-0.899951,-0.899951,-29489,-2422,7781.25,0.0376134,0.0376087,1232,0.0376134,1232,0.0376134,1232,1233,778,780,4223,4222,
1.72917,-0.897916,-0.897916,-29422,-1640,7875,0.0371991,0.0372028,1219,0.0371989,1218,0.0371989,1217,1216,961,959,4177,4176,
1.75,-0.892903,-0.892903,-29258,-14485,7968.75,0.0367952,0.036791,1205,0.0367955,1205,0.0367955,1205,1205,1185,1184,4132,4130,
1.77083,-0.884929,-0.884929,-28997,-10871,8062.5,0.0364014,0.036402,1193,0.0364018,1192,0.0364018,1193,1191,1459,1458,4088,4089,
1.79167,-0.874021,-0.874021,-28639,-18926,8156.25,0.0360173,0.036022,1180,0.0360193,1180,0.0360193,1181,1181,1806,1807,4045,4042,
1.8125,-0.860214,-0.860214,-28187,-14601,8250,0.0356426,0.035628,1167,0.0356393,1167,0.0356392,1167,1166,2260,2259,4004,4009,
1.83333,-0.843554,-0.843554,-27641,3818,8343.75,0.0352769,0.0352785,1154,0.0352766,1155,0.0352766,1155,1156,2880,2881,3963,3959,
1.85417,-0.824096,-0.824096,-27003,-3250,8437.5,0.0349201,0.0349422,1142,0.0349206,1144,0.0349207,1142,1142,3789,3787,3923,3925,
1.875,-0.801906,-0.801906,-26276,-3603,8531.25,0.0345717,0.0345041,1132,0.0345724,1132,0.0345724,1132,1132,5251,5252,3884,3884,
1.89583,-0.777056,-0.777056,-25462,-5780,8625,0.0342314,0.0342201,1121,0.0342317,1121,0.0342318,1122,1121,8018,8018,3846,3845,
1.91667,-0.749629,-0.749629,-24563,-17709,8718.75,0.0338991,0.0338827,1109,0.0338996,1110,0.0338996,1109,1110,15412,15408,3809,3809,
1.9375,-0.719716,-0.719716,-23583,-5542,8812.5,0.0335745,0.0335818,1100,0.0335747,1100,0.0335747,1100,1099,139876,139865,3773,3778,
1.95833,-0.687416,-0.687417,-22525,-6724,8906.25,0.0332573,0.0332836,1090,0.0332574,1089,0.0332574,1091,1091,36638,36635,3737,3737,
1.97917,-0.652837,-0.652837,-21392,-17596,9000,0.0329473,0.0329363,1079,0.0329465,1079,0.0329464,1079,1079,12958,12958,3703,3705,
2,-0.616092,-0.616093,-20188,-12987,9093.75,0.0326443,0.0326476,1070,0.0326443,1069,0.0326443,1070,1071,8323,8321,3669,3670,
2.02083,-0.577305,-0.577305,-18917,-21090,9187.5,0.032348,0.0323452,1060,0.0323464,1059,0.0323463,1060,1060,6260,6261,3635,3636,
2.04167,-0.536602,-0.536602,-17583,-13053,9281.25,0.0320583,0.032044,1050,0.0320575,1050,0.0320575,1049,1049,5086,5086,3604,3602,
2.0625,-0.494121,-0.494121,-16191,4731,9375,0.0317749,0.0317835,1041,0.0317746,1041,0.0317746,1041,1041,4323,4323,3571,3573,
2.08333,-0.45,-0.45,-14745,-2654,9468.75,0.0314977,0.0314945,1031,0.0314971,1032,0.0314972,1033,1033,3785,3784,3541,3539,
2.10417,-0.404387,-0.404387,-13250,-620,9562.5,0.0312264,0.0312274,1023,0.0312265,1023,0.0312266,1022,1022,3386,3387,3510,3512,
2.125,-0.357433,-0.357433,-11712,-3778,9656.25,0.030961,0.0309527,1014,0.0309612,1014,0.0309612,1012,1013,3077,3077,3481,3478,
2.14583,-0.309294,-0.309294,-10134,-13330,9750,0.0307012,0.0307023,1006,0.0307013,1006,0.0307013,1005,1004,2831,2831,3452,3452,
2.16667,-0.260129,-0.260129,-8523,757,9843.75,0.0304469,0.030451,997,0.030447,997,0.030447,997,997,2628,2628,3423,3425,
2.1875,-0.210101,-0.210101,-6884,-2189,9937.5,0.0301979,0.0301917,989,0.0301981,989,0.0301981,988,988,2461,2462,3395,3391,
2.20833,-0.159376,-0.159376,-5222,-10749,10031.2,0.0299541,0.0299508,981,0.0299543,981,0.0299543,981,983,2317,2317,3368,3367,
2.22917,-0.108123,-0.108123,-3542,-5631,10125,0.0297153,0.0297359,973,0.0297151,973,0.0297153,971,970,2195,2195,3341,3343,
2.25,-0.0565115,-0.0565118,-1851,-13615,10218.8,0.0294814,0.029482,966,0.0294809,966,0.0294809,966,967,2088,2087,3315,3315,
2.27083,-0.00471237,-0.00471235,-154,-2241,10312.5,0.0292523,0.0292537,958,0.0292522,958,0.0292522,960,959,1994,1994,3290,3287,
2.29167,0.0471024,0.0471023,1543,14059,10406.2,0.0290278,0.029009,950,0.0290277,951,0.0290276,950,951,1910,1909,3264,3266,
2.3125,0.0987609,0.0987606,3236,6286,10500,0.0288078,0.0288065,944,0.0288082,943,0.0288082,943,942,1836,1837,3240,3239,
2.33333,0.150092,0.150092,4918,9863,10593.8,0.0285922,0.0285847,937,0.0285931,936,0.0285931,937,937,1767,1766,3215,3218,
2.35417,0.200925,0.200925,6583,4965,10687.5,0.0283809,0.0283811,929,0.0283782,929,0.0283782,927,927,1710,1711,3192,3196,
2.375,0.251092,0.251092,8227,-2612,10781.2,0.0281737,0.0281591,923,0.0281739,923,0.0281739,923,924,1654,1652,3169,3170,
2.39583,0.300426,0.300426,9844,12014,10875,0.0279706,0.0279586,916,0.0279706,916,0.0279707,916,916,1602,1603,3146,3149,
2.41667,0.348764,0.348764,11428,6527,10968.8,0.0277715,0.0277753,910,0.027772,910,0.0277716,909,909,1557,1557,3124,3122,
2.4375,0.395945,0.395945,12974,-473,11062.5,0.0275762,0.0275915,903,0.0275767,903,0.0275767,901,901,1513,1514,3102,3098,
2.45833,0.441813,0.441813,14477,3745,11156.2,0.0273847,0.0273983,897,0.0273851,897,0.0273851,898,898,1474,1474,3080,3079,
2.47917,0.486216,0.486216,15932,-4753,11250,0.0271968,0.0272052,891,0.0271969,891,0.0271969,891,890,1437,1438,3059,3059,
2.5,0.529007,0.529007,17334,8729,11343.8,0.0270125,0.0270335,885,0.0270123,885,0.0270123,884,885,1401,1401,3039,3034,
2.52083,0.570043,0.570043,18679,22128,11437.5,0.0268318,0.0268344,878,0.0268317,879,0.0268316,877,877,1370,1371,3018,3018,
2.54167,0.609188,0.609188,19961,13376,11531.2,0.0266544,0.0266542,873,0.0266559,873,0.0266559,874,874,1340,1340,2998,2998,
2.5625,0.646314,0.646314,21178,17177,11625,0.0264803,0.0264815,867,0.0264797,867,0.0264799,866,866,1312,1313,2979,2979,
2.58333,0.681296,0.681296,22324,9597,11718.8,0.0263095,0.0263266,862,0.0263093,862,0.0263093,862,862,1287,1285,2960,2958,
2.60417,0.714018,0.714018,23396,3378,11812.5,0.0261419,0.0261228,856,0.0261414,856,0.0261413,856,855,1261,1262,2941,2939,
2.625,0.744373,0.744372,24391,17128,11906.2,0.0259774,0.0259827,851,0.0259776,851,0.0259776,852,853,1237,1236,2923,2923,
2.64583,0.772258,0.772258,25305,8539,12000,0.0258159,0.0258151,845,0.0258153,845,0.0258152,846,846,1215,1216,2904,2903,
2.66667,0.797583,0.797583,26135,2509,12093.8,0.0256574,0.0256643,840,0.0256573,840,0.0256573,841,842,1194,1192,2887,2887,
2.6875,0.820263,0.820263,26878,4844,12187.5,0.0255018,0.0254901,835,0.0255021,835,0.025502,836,835,1175,1174,2869,2871,
2.70833,0.840222,0.840222,27532,-4262,12281.2,0.025349,0.0253545,830,0.0253492,830,0.0253492,831,831,1156,1156,2852,2856,
2.72917,0.857395,0.857395,28095,10625,12375,0.025199,0.0252104,825,0.025199,825,0.0251989,824,824,1136,1138,2835,2833,
2.75,0.871725,0.871725,28564,20526,12468.8,0.0250516,0.0250297,821,0.0250514,820,0.0250518,821,821,1119,1117,2819,2817,
2.77083,0.883163,0.883163,28939,11024,12562.5,0.024907,0.0248656,816,0.0249069,816,0.0249068,817,816,1103,1103,2802,2805,
2.79167,0.891673,0.891673,29218,14599,12656.2,0.0247649,0.0247393,811,0.024765,811,0.0247651,811,812,1088,1088,2787,2784,
2.8125,0.897226,0.897226,29400,4487,12750,0.0246254,0.0246287,805,0.0246252,806,0.0246252,805,806,1072,1074,2771,2776,
2.83333,0.899803,0.899803,29484,-1,12843.8,0.0244883,0.0245035,801,0.0244884,802,0.0244884,804,803,1058,1056,2756,2757,
2.85417,0.899396,0.899396,29471,12571,12937.5,0.0243537,0.0243702,798,0.0243531,798,0.0243532,799,798,1044,1045,2741,2740,
2.875,0.896006,0.896006,29360,1550,13031.2,0.0242215,0.0241991,794,0.0242211,793,0.024221,793,794,1030,1030,2725,2727,
2.89583,0.889644,0.889645,29151,-3016,13125,0.0240916,0.0240954,789,0.0240926,789,0.0240926,789,788,1019,1019,2711,2713,
2.91667,0.880333,0.880333,28846,-2314,13218.8,0.023964,0.0241565,785,0.0239638,785,0.0239639,784,784,1005,1005,2697,2695,
2.9375,0.868102,0.868102,28445,-10941,13312.5,0.0238387,0.0238629,781,0.0238391,781,0.0238391,780,779,995,997,2683,2685,
2.95833,0.852992,0.852992,27950,5706,13406.2,0.0237155,0.0236363,777,0.0237157,777,0.0237157,777,779,984,984,2669,2670,
2.97917,0.835053,0.835053,27363,12723,13500,0.0235945,0.0236063,772,0.0235943,773,0.0235943,770,770,973,974,2655,2658,
3,0.814344,0.814345,26684,3725,13593.8,0.0234756,0.0234745,769,0.0234755,769,0.0234755,768,769,963,963,2642,2644,
3.02083,0.790935,0.790935,25917,7574,13687.5,0.0233588,0.023341,765,0.0233589,765,0.023359,766,765,952,952,2629,2631,
3.04167,0.764903,0.764903,25064,-3917,13781.2,0.023244,0.0232528,761,0.0232441,761,0.0232441,762,763,943,942,2617,2612,
3.0625,0.736335,0.736335,24128,-5573,13875,0.0231312,0.0231894,757,0.0231307,757,0.0231308,756,755,934,935,2604,2605,
3.08333,0.705324,0.705324,23112,6267,13968.8,0.0230203,0.0229923,754,0.0230191,754,0.0230192,754,755,925,924,2591,2594,
3.10417,0.671974,0.671975,22019,-5837,14062.5,0.0229114,0.022889,750,0.0229115,750,0.0229115,750,749,917,917,2579,2578,
3.125,0.636396,0.636396,20853,-8042,14156.2,0.0228044,0.0227946,746,0.0228043,747,0.0228043,746,747,909,908,2566,2567,
3.14583,0.598707,0.598707,19618,-8279,14250,0.0226992,0.0226691,743,0.0226995,743,0.0226995,743,743,901,901,2555,2559,
3.16667,0.559033,0.559033,18318,-15093,14343.8,0.0225958,0.0225852,739,0.0225955,740,0.0225955,738,739,893,893,2544,2541,
3.1875,0.517505,0.517505,16957,3715,14437.5,0.0224943,0.0224736,737,0.0224953,737,0.0224954,737,736,886,886,2532,2534,
3.20833,0.47426,0.47426,15540,8553,14531.2,0.0223944,0.0223726,734,0.0223945,733,0.0223945,734,735,879,877,2521,2522,
3.22917,0.429443,0.429443,14071,1124,14625,0.0222963,0.0223144,731,0.022296,730,0.0222961,731,731,874,875,2510,2510,
3.25,0.383201,0.383201,12556,5467,14718.8,0.0221999,0.0222208,727,0.0221997,727,0.0221997,726,726,869,867,2499,2496,
3.27083,0.335689,0.335689,10999,-6558,14812.5,0.0221051,0.0221256,724,0.0221053,724,0.0221053,724,724,861,860,2489,2489,
